Z,H,temp,temp_ratio,pressure,pressure_ratio,density,density_ratio,c,g
0.0000000000000000000,0.0000000000000000000,288.1500000000000000000,1.0000000000000000000,101320.0000000000000000000,1.0000000000000000000,1.2250000000000000000,1.0000000000000000000,340.2900000000000000000,9.8066000000000000000
5000.0000000000000000000,5000.0000000000000000000,255.6760000000000000000,0.8873000000000000000,54048.0000000000000000000,0.5334200000000000000,0.7364300000000000000,0.6011700000000000000,320.5500000000000000000,9.7912000000000000000
10000.0000000000000000000,10000.0000000000000000000,223.2520000000000000000,0.7748000000000000000,26500.0000000000000000000,0.2615300000000000000,0.4135100000000000000,0.3375600000000000000,299.5300000000000000000,9.7759000000000000000
15000.0000000000000000000,15000.0000000000000000000,216.6500000000000000000,0.7519000000000000000,12112.0000000000000000000,0.1195300000000000000,0.1947600000000000000,0.1589800000000000000,295.0700000000000000000,9.7605000000000000000
20000.0000000000000000000,19900.0000000000000000000,216.6500000000000000000,0.7519000000000000000,5529.3000000000000000000,0.0545700000000000000,0.0889100000000000000,0.0725800000000000000,295.0700000000000000000,9.7452000000000000000
25000.0000000000000000000,24900.0000000000000000000,221.5520000000000000000,0.7689000000000000000,2549.2000000000000000000,0.0251590000000000000,0.0400840000000000000,0.0327220000000000000,298.3900000000000000000,9.7300000000000000000
30000.0000000000000000000,29900.0000000000000000000,226.5090000000000000000,0.7861000000000000000,1197.0000000000000000000,0.0118140000000000000,0.0184100000000000000,0.0150290000000000000,301.7100000000000000000,9.7147000000000000000
35000.0000000000000000000,34800.0000000000000000000,236.5130000000000000000,0.8208000000000000000,574.5900000000000000000,0.0056708000000000000,0.0084634000000000000,0.0069089000000000000,308.3000000000000000000,9.6995000000000000000
40000.0000000000000000000,39700.0000000000000000000,250.3500000000000000000,0.8688000000000000000,287.1400000000000000000,0.0028339000000000000,0.0039957000000000000,0.0032618000000000000,317.1900000000000000000,9.6844000000000000000
45000.0000000000000000000,44700.0000000000000000000,264.1640000000000000000,0.9168000000000000000,149.1000000000000000000,0.0014715000000000000,0.0019663000000000000,0.0016051000000000000,325.8200000000000000000,9.6693000000000000000
50000.0000000000000000000,49600.0000000000000000000,270.6500000000000000000,0.9393000000000000000,79.7790000000000000000,0.0007873600000000000,0.0010269000000000000,0.0008382700000000000,329.8000000000000000000,9.6542000000000000000
55000.0000000000000000000,54500.0000000000000000000,260.7710000000000000000,0.9050000000000000000,42.5250000000000000000,0.0004196900000000000,0.0005681000000000000,0.0004637500000000000,323.7200000000000000000,9.6391000000000000000
60000.0000000000000000000,59400.0000000000000000000,247.0210000000000000000,0.8573000000000000000,21.9590000000000000000,0.0002167200000000000,0.0003096800000000000,0.0002528000000000000,315.0700000000000000000,9.6241000000000000000
65000.0000000000000000000,64300.0000000000000000000,233.2920000000000000000,0.8096000000000000000,10.9300000000000000000,0.0001078700000000000,0.0001632100000000000,0.0001332300000000000,306.1900000000000000000,9.6091000000000000000
70000.0000000000000000000,69200.0000000000000000000,219.5850000000000000000,0.7621000000000000000,5.2209000000000000000,0.0000515260000000000,0.0000828290000000000,0.0000676150000000000,297.0600000000000000000,9.5942000000000000000
75000.0000000000000000000,74100.0000000000000000000,208.3990000000000000000,0.7232000000000000000,2.3881000000000000000,0.0000235690000000000,0.0000399210000000000,0.0000325890000000000,289.4000000000000000000,9.5793000000000000000
80000.0000000000000000000,79000.0000000000000000000,198.6390000000000000000,0.6894000000000000000,1.0525000000000000000,0.0000103870000000000,0.0000184580000000000,0.0000150680000000000,282.5400000000000000000,9.5644000000000000000
85000.0000000000000000000,83900.0000000000000000000,188.8930000000000000000,0.6555000000000000000,0.4456800000000000000,0.0000043985000000000,0.0000082195000000000,0.0000067098000000000,275.5200000000000000000,9.5496000000000000000
90000.0000000000000000000,88700.0000000000000000000,186.8670000000000000000,0.6485000000000000000,0.1843500000000000000,0.0000018194000000000,0.0000034400000000000,0.0000028082000000000,274.0400000000000000000,9.5347000000000000000
95000.0000000000000000000,93600.0000000000000000000,188.4180000000000000000,0.6539000000000000000,0.0757750000000000000,0.0000007478400000000,0.0000013873000000000,0.0000011325000000000,275.1700000000000000000,9.5200000000000000000
100000.0000000000000000000,98500.0000000000000000000,195.0810000000000000000,0.6770000000000000000,0.0320120000000000000,0.0000003159300000000,0.0000005604400000000,0.0000004575000000000,280.0000000000000000000,9.5052000000000000000
105000.0000000000000000000,103300.0000000000000000000,208.8350000000000000000,0.7247000000000000000,0.0144230000000000000,0.0000001423500000000,0.0000002332500000000,0.0000001904100000000,289.7000000000000000000,9.4905000000000000000
110000.0000000000000000000,108100.0000000000000000000,240.0000000000000000000,0.8329000000000000000,0.0071493000000000000,0.0000000705590000000,0.0000000967340000000,0.0000000789670000000,310.5600000000000000000,9.4759000000000000000
115000.0000000000000000000,113000.0000000000000000000,300.0000000000000000000,1.0411000000000000000,0.0040037000000000000,0.0000000395130000000,0.0000000427940000000,0.0000000349340000000,347.2200000000000000000,9.4612000000000000000
120000.0000000000000000000,117800.0000000000000000000,360.0000000000000000000,1.2493000000000000000,0.0025366000000000000,0.0000000250350000000,0.0000000221990000000,0.0000000181210000000,380.3600000000000000000,9.4466000000000000000
125000.0000000000000000000,122600.0000000000000000000,417.2310000000000000000,1.4480000000000000000,0.0017360000000000000,0.0000000171330000000,0.0000000129180000000,0.0000000105450000000,409.4800000000000000000,9.4321000000000000000
130000.0000000000000000000,127400.0000000000000000000,469.2680000000000000000,1.6286000000000000000,0.0012503000000000000,0.0000000123400000000,0.0000000081494000000,0.0000000066526000000,434.2700000000000000000,9.4175000000000000000
135000.0000000000000000000,132200.0000000000000000000,516.5890000000000000000,1.7928000000000000000,0.0009356900000000000,0.0000000092345000000,0.0000000054647000000,0.0000000044610000000,455.6400000000000000000,9.4030000000000000000
140000.0000000000000000000,137000.0000000000000000000,559.6270000000000000000,1.9421000000000000000,0.0007202900000000000,0.0000000071087000000,0.0000000038313000000,0.0000000031276000000,474.2400000000000000000,9.3886000000000000000
145000.0000000000000000000,141800.0000000000000000000,598.7760000000000000000,2.0780000000000000000,0.0005669000000000000,0.0000000055948000000,0.0000000027805000000,0.0000000022698000000,490.5400000000000000000,9.3741000000000000000
150000.0000000000000000000,146500.0000000000000000000,634.3920000000000000000,2.2016000000000000000,0.0004542200000000000,0.0000000044828000000,0.0000000020752000000,0.0000000016940000000,504.9200000000000000000,9.3597000000000000000
155000.0000000000000000000,151300.0000000000000000000,666.7990000000000000000,2.3141000000000000000,0.0003692900000000000,0.0000000036446000000,0.0000000015848000000,0.0000000012937000000,517.6600000000000000000,9.3453000000000000000
160000.0000000000000000000,156100.0000000000000000000,696.2900000000000000000,2.4164000000000000000,0.0003039400000000000,0.0000000029997000000,0.0000000012336000000,0.0000000010070000000,528.9800000000000000000,9.3310000000000000000
165000.0000000000000000000,160800.0000000000000000000,723.1320000000000000000,2.5096000000000000000,0.0002527700000000000,0.0000000024946000000,0.0000000009752600000,0.0000000007961300000,539.0800000000000000000,9.3167000000000000000
170000.0000000000000000000,165600.0000000000000000000,747.5660000000000000000,2.5944000000000000000,0.0002121000000000000,0.0000000020933000000,0.0000000007815500000,0.0000000006380000000,548.1100000000000000000,9.3024000000000000000
175000.0000000000000000000,170300.0000000000000000000,769.8110000000000000000,2.6716000000000000000,0.0001793600000000000,0.0000000017702000000,0.0000000006338200000,0.0000000005174000000,556.2100000000000000000,9.2882000000000000000
180000.0000000000000000000,175000.0000000000000000000,790.0660000000000000000,2.7419000000000000000,0.0001527200000000000,0.0000000015072000000,0.0000000005194000000,0.0000000004240000000,563.4800000000000000000,9.2740000000000000000
185000.0000000000000000000,179800.0000000000000000000,808.5110000000000000000,2.8059000000000000000,0.0001308100000000000,0.0000000012910000000,0.0000000004295200000,0.0000000003506300000,570.0200000000000000000,9.2598000000000000000
190000.0000000000000000000,184500.0000000000000000000,825.3120000000000000000,2.8642000000000000000,0.0001126500000000000,0.0000000011118000000,0.0000000003580700000,0.0000000002923000000,575.9100000000000000000,9.2457000000000000000
195000.0000000000000000000,189200.0000000000000000000,840.6160000000000000000,2.9173000000000000000,0.0000974890000000000,0.0000000009621400000,0.0000000003006400000,0.0000000002454200000,581.2200000000000000000,9.2316000000000000000
200000.0000000000000000000,193900.0000000000000000000,854.5590000000000000000,2.9657000000000000000,0.0000847360000000000,0.0000000008362800000,0.0000000002540700000,0.0000000002074000000,586.0200000000000000000,9.2175000000000000000
205000.0000000000000000000,198600.0000000000000000000,867.2640000000000000000,3.0098000000000000000,0.0000739430000000000,0.0000000007297600000,0.0000000002159600000,0.0000000001763000000,590.3600000000000000000,9.2035000000000000000
210000.0000000000000000000,203300.0000000000000000000,878.8420000000000000000,3.0499000000000000000,0.0000647570000000000,0.0000000006391100000,0.0000000001845600000,0.0000000001506600000,594.2900000000000000000,9.1895000000000000000
215000.0000000000000000000,208000.0000000000000000000,889.3950000000000000000,3.0866000000000000000,0.0000569020000000000,0.0000000005615700000,0.0000000001584900000,0.0000000001293800000,597.8500000000000000000,9.1755000000000000000
220000.0000000000000000000,212600.0000000000000000000,899.0140000000000000000,3.1200000000000000000,0.0000501500000000000,0.0000000004949400000,0.0000000001367100000,0.0000000001116000000,601.0700000000000000000,9.1615000000000000000
225000.0000000000000000000,217300.0000000000000000000,907.7850000000000000000,3.1504000000000000000,0.0000443210000000000,0.0000000004374100000,0.0000000001183900000,0.0000000000966430000,604.0000000000000000000,9.1476000000000000000
230000.0000000000000000000,222000.0000000000000000000,915.7820000000000000000,3.1781000000000000000,0.0000392700000000000,0.0000000003875600000,0.0000000001029000000,0.0000000000840020000,606.6500000000000000000,9.1337000000000000000
235000.0000000000000000000,226600.0000000000000000000,923.0750000000000000000,3.2035000000000000000,0.0000348790000000000,0.0000000003442300000,0.0000000000897570000,0.0000000000732710000,609.0600000000000000000,9.1199000000000000000
240000.0000000000000000000,231300.0000000000000000000,929.7260000000000000000,3.2265000000000000000,0.0000310510000000000,0.0000000003064400000,0.0000000000785500000,0.0000000000641220000,611.2600000000000000000,9.1061000000000000000
245000.0000000000000000000,235900.0000000000000000000,935.7940000000000000000,3.2476000000000000000,0.0000277010000000000,0.0000000002733900000,0.0000000000689540000,0.0000000000562890000,613.2500000000000000000,9.0923000000000000000
250000.0000000000000000000,240500.0000000000000000000,941.3300000000000000000,3.2668000000000000000,0.0000247620000000000,0.0000000002443900000,0.0000000000607060000,0.0000000000495560000,615.0600000000000000000,9.0785000000000000000
255000.0000000000000000000,245200.0000000000000000000,946.3810000000000000000,3.2843000000000000000,0.0000221760000000000,0.0000000002188600000,0.0000000000535870000,0.0000000000437440000,616.7100000000000000000,9.0648000000000000000
260000.0000000000000000000,249800.0000000000000000000,950.9910000000000000000,3.3003000000000000000,0.0000198940000000000,0.0000000001963400000,0.0000000000474200000,0.0000000000387100000,618.2100000000000000000,9.0511000000000000000
265000.0000000000000000000,254400.0000000000000000000,955.1980000000000000000,3.3149000000000000000,0.0000178750000000000,0.0000000001764100000,0.0000000000420580000,0.0000000000343330000,619.5700000000000000000,9.0374000000000000000
270000.0000000000000000000,259000.0000000000000000000,959.0390000000000000000,3.3283000000000000000,0.0000160840000000000,0.0000000001587400000,0.0000000000373820000,0.0000000000305160000,620.8200000000000000000,9.0238000000000000000
275000.0000000000000000000,263600.0000000000000000000,962.5450000000000000000,3.3404000000000000000,0.0000144940000000000,0.0000000001430400000,0.0000000000332940000,0.0000000000271790000,621.9500000000000000000,9.0102000000000000000
280000.0000000000000000000,268200.0000000000000000000,965.7460000000000000000,3.3515000000000000000,0.0000130780000000000,0.0000000001290600000,0.0000000000297100000,0.0000000000242530000,622.9800000000000000000,8.9966000000000000000
285000.0000000000000000000,272800.0000000000000000000,968.6700000000000000000,3.3617000000000000000,0.0000118150000000000,0.0000000001166000000,0.0000000000265600000,0.0000000000216810000,623.9300000000000000000,8.9831000000000000000
290000.0000000000000000000,277300.0000000000000000000,971.3400000000000000000,3.3710000000000000000,0.0000106860000000000,0.0000000001054600000,0.0000000000237830000,0.0000000000194150000,624.7900000000000000000,8.9696000000000000000
295000.0000000000000000000,281900.0000000000000000000,973.7790000000000000000,3.3794000000000000000,0.0000096760000000000,0.0000000000954950000,0.0000000000213310000,0.0000000000174130000,625.5700000000000000000,8.9561000000000000000
300000.0000000000000000000,286500.0000000000000000000,976.0080000000000000000,3.3872000000000000000,0.0000087704000000000,0.0000000000865570000,0.0000000000191590000,0.0000000000156400000,626.2800000000000000000,8.9427000000000000000
305000.0000000000000000000,291000.0000000000000000000,978.0440000000000000000,3.3942000000000000000,0.0000079571000000000,0.0000000000785300000,0.0000000000172320000,0.0000000000140670000,626.9400000000000000000,8.9292000000000000000
310000.0000000000000000000,295600.0000000000000000000,979.9040000000000000000,3.4007000000000000000,0.0000072259000000000,0.0000000000713140000,0.0000000000155190000,0.0000000000126680000,627.5300000000000000000,8.9158000000000000000
315000.0000000000000000000,300100.0000000000000000000,981.6050000000000000000,3.4066000000000000000,0.0000065678000000000,0.0000000000648190000,0.0000000000139940000,0.0000000000114230000,628.0800000000000000000,8.9025000000000000000
320000.0000000000000000000,304700.0000000000000000000,983.1590000000000000000,3.4120000000000000000,0.0000059748000000000,0.0000000000589670000,0.0000000000126340000,0.0000000000103130000,628.5700000000000000000,8.8892000000000000000
325000.0000000000000000000,309200.0000000000000000000,984.5800000000000000000,3.4169000000000000000,0.0000054400000000000,0.0000000000536890000,0.0000000000114190000,0.0000000000093218000,629.0300000000000000000,8.8759000000000000000
330000.0000000000000000000,313700.0000000000000000000,985.8800000000000000000,3.4214000000000000000,0.0000049571000000000,0.0000000000489230000,0.0000000000103330000,0.0000000000084353000,629.4400000000000000000,8.8626000000000000000
335000.0000000000000000000,318200.0000000000000000000,987.0680000000000000000,3.4255000000000000000,0.0000045208000000000,0.0000000000446170000,0.0000000000093607000,0.0000000000076414000,629.8200000000000000000,8.8494000000000000000
340000.0000000000000000000,322700.0000000000000000000,988.1540000000000000000,3.4293000000000000000,0.0000041260000000000,0.0000000000407210000,0.0000000000084886000,0.0000000000069295000,630.1700000000000000000,8.8361000000000000000
345000.0000000000000000000,327200.0000000000000000000,989.1480000000000000000,3.4328000000000000000,0.0000037686000000000,0.0000000000371930000,0.0000000000077054000,0.0000000000062901000,630.4900000000000000000,8.8230000000000000000
350000.0000000000000000000,331700.0000000000000000000,990.0570000000000000000,3.4359000000000000000,0.0000034446000000000,0.0000000000339960000,0.0000000000070011000,0.0000000000057152000,630.7800000000000000000,8.8098000000000000000
355000.0000000000000000000,336200.0000000000000000000,990.8890000000000000000,3.4388000000000000000,0.0000031507000000000,0.0000000000310950000,0.0000000000063670000,0.0000000000051976000,631.0400000000000000000,8.7967000000000000000
360000.0000000000000000000,340700.0000000000000000000,991.6500000000000000000,3.4414000000000000000,0.0000028839000000000,0.0000000000284620000,0.0000000000057954000,0.0000000000047310000,631.2800000000000000000,8.7836000000000000000
365000.0000000000000000000,345200.0000000000000000000,992.3470000000000000000,3.4439000000000000000,0.0000026414000000000,0.0000000000260680000,0.0000000000052795000,0.0000000000043098000,631.5000000000000000000,8.7705000000000000000
370000.0000000000000000000,349600.0000000000000000000,992.9840000000000000000,3.4461000000000000000,0.0000024208000000000,0.0000000000238910000,0.0000000000048132000,0.0000000000039292000,631.7100000000000000000,8.7575000000000000000
375000.0000000000000000000,354100.0000000000000000000,993.5680000000000000000,3.4481000000000000000,0.0000022200000000000,0.0000000000219090000,0.0000000000043914000,0.0000000000035848000,631.8900000000000000000,8.7445000000000000000
380000.0000000000000000000,358600.0000000000000000000,994.1020000000000000000,3.4499000000000000000,0.0000020370000000000,0.0000000000201040000,0.0000000000040093000,0.0000000000032729000,632.0600000000000000000,8.7315000000000000000
385000.0000000000000000000,363000.0000000000000000000,994.5910000000000000000,3.4516000000000000000,0.0000018702000000000,0.0000000000184570000,0.0000000000036629000,0.0000000000029901000,632.2200000000000000000,8.7186000000000000000
390000.0000000000000000000,367500.0000000000000000000,995.0390000000000000000,3.4532000000000000000,0.0000017179000000000,0.0000000000169540000,0.0000000000033484000,0.0000000000027334000,632.3600000000000000000,8.7057000000000000000
395000.0000000000000000000,371900.0000000000000000000,995.4500000000000000000,3.4546000000000000000,0.0000015789000000000,0.0000000000155820000,0.0000000000030627000,0.0000000000025002000,632.4900000000000000000,8.6928000000000000000
400000.0000000000000000000,376300.0000000000000000000,995.8250000000000000000,3.4559000000000000000,0.0000014518000000000,0.0000000000143280000,0.0000000000028028000,0.0000000000022880000,632.6100000000000000000,8.6799000000000000000
405000.0000000000000000000,380700.0000000000000000000,996.1700000000000000000,3.4571000000000000000,0.0000013356000000000,0.0000000000131810000,0.0000000000025662000,0.0000000000020949000,632.7200000000000000000,8.6671000000000000000
410000.0000000000000000000,385200.0000000000000000000,996.4850000000000000000,3.4582000000000000000,0.0000012292000000000,0.0000000000121320000,0.0000000000023507000,0.0000000000019189000,632.8200000000000000000,8.6543000000000000000
415000.0000000000000000000,389600.0000000000000000000,996.7740000000000000000,3.4592000000000000000,0.0000011319000000000,0.0000000000111710000,0.0000000000021543000,0.0000000000017586000,632.9100000000000000000,8.6415000000000000000
420000.0000000000000000000,394000.0000000000000000000,997.0390000000000000000,3.4601000000000000000,0.0000010428000000000,0.0000000000102920000,0.0000000000019752000,0.0000000000016124000,633.0000000000000000000,8.6288000000000000000
